x(m),y(m),z(m),zRelative(m),heading(rad),t(s),s(m/s),a(m/s²),Δd(m),d(m)
431225.29,4580828.94,60.09,9.99,6.225763974788972,0,0.086,0.0,0.000,0.000
431225.28,4580828.95,60.09,9.99,6.225938507714172,0.733357948,0.03,0.0,0.014,0.014
431225.27,4580828.98,60.09,9.99,6.226811172340169,0.966757459,0.13,0.0,0.032,0.046
431225.22,4580829.04,60.09,9.99,6.22663663941497,1.201365928,0.345,0.0,0.078,0.124
431225.15,4580829.15,60.08,9.98,6.225414908938574,1.466622434,0.547,0.0,0.13,0.254
431225.05,4580829.3,60.08,9.98,6.224891310162976,1.700226464,0.732,0.0,0.18,0.435
431224.93,4580829.48,60.09,9.99,6.224891310162976,1.934001489,0.885,0.0,0.216,0.651
431224.8,4580829.69,60.08,9.98,6.225240376013375,2.166963449,1.021,0.0,0.247,0.898
431224.64,4580829.94,60.08,9.98,6.226113040639372,2.400717626,1.143,0.0,0.297,1.195
431224.47,4580830.19,60.08,9.98,6.227160238190568,2.66701644,1.27,0.0,0.302,1.497
431224.28,4580830.48,60.08,9.98,6.196093377505068,2.900202133,1.437,0.0,0.347,1.844
431224.05,4580830.8,60.08,9.98,6.025225643734825,3.13418546,1.632,0.0,0.394,2.238
431223.77,4580831.14,60.08,9.98,5.751732549947313,3.366715539,1.83,0.0,0.44,2.678
431223.47,4580831.51,60.08,9.98,5.540024111680401,3.600600651,2.019,0.0,0.476,3.155
431223.15,4580831.95,60.08,9.98,5.483999042691383,3.866970997,2.236,0.0,0.544,3.699
431222.84,4580832.44,60.08,9.98,5.549972488416769,4.100208881,2.461,0.0,0.58,4.278
431222.53,4580833.0,60.08,9.98,5.659753698367212,4.333935069,2.659,0.0,0.64,4.919
431222.2,4580833.59,60.08,9.98,5.7407369756597495,4.567087383,2.852,0.0,0.676,5.595
431221.82,4580834.22,60.08,9.98,5.756270406002499,4.80052752,3.076,0.0,0.736,6.33
431221.38,4580834.86,60.08,9.98,5.720142090486216,5.067209882,3.291,0.0,0.777,7.107
431220.91,4580835.56,60.08,9.98,5.670051140953978,5.300188067,3.514,0.0,0.843,7.95
431220.39,4580836.27,60.08,9.98,5.638286148567682,5.534039832,3.735,0.0,0.88,8.83
431219.87,4580837.05,60.08,9.98,5.63549362176449,5.767490295,3.975,0.0,0.937,9.768
431219.31,4580837.89,60.08,9.98,5.653295980134834,5.99992419,4.207,0.0,1.01,10.777
431218.74,4580838.78,60.08,9.98,5.674414464083965,6.267124279,4.427,0.0,1.057,11.834
431218.13,4580839.7,60.08,9.98,5.686457235922725,6.500912125,4.651,0.0,1.104,12.938
431217.48,4580840.66,60.08,9.98,5.685759104221927,6.732920789,4.854,0.0,1.159,14.097
431216.81,4580841.67,60.08,9.98,5.677381523812355,6.967206419,5.057,0.0,1.212,15.309
431216.1,4580842.7,60.08,9.98,5.668480344627184,7.202258325,5.235,0.0,1.251,16.56
431215.37,4580843.76,60.08,9.98,5.6639424885719984,7.467987669,5.409,0.0,1.287,17.847
431214.62,4580844.85,60.08,9.98,5.664989686123194,7.69958225,5.57,0.0,1.323,19.17
431213.85,4580845.99,60.08,9.98,5.669003943402782,7.932304747,5.736,0.0,1.376,20.546
431213.05,4580847.17,60.08,9.98,5.673018200682368,8.166798588,5.889,0.0,1.426,21.972
431212.25,4580848.36,60.08,9.98,5.675112595784762,8.401933088,6.053,0.0,1.434,23.406
431211.41,4580849.59,60.08,9.98,5.674763529934363,8.668211674,6.194,0.0,1.489,24.895
431210.55,4580850.84,60.08,9.98,5.673367266532767,8.900193402,6.352,0.0,1.517,26.412
431209.66,4580852.13,60.08,9.98,5.671796470205972,9.132570636,6.488,0.0,1.567,27.98
431208.77,4580853.44,60.08,9.98,5.671447404355574,9.366485071,6.627,0.0,1.584,29.563
431207.85,4580854.78,60.08,9.98,5.671971003131173,9.601905305,6.755,0.0,1.625,31.189
431206.92,4580856.13,60.08,9.98,5.673018200682368,9.868639789,6.877,0.0,1.639,32.828
431205.96,4580857.52,60.08,9.98,5.674065398233566,10.100696932,6.971,0.0,1.689,34.517
431205.0,4580858.92,60.08,9.98,5.674938062859563,10.332975246,7.057,0.0,1.698,36.215
431204.02,4580860.34,60.08,9.98,5.674938062859563,10.565786353,7.121,0.0,1.725,37.94
431203.04,4580861.76,60.08,9.98,5.675112595784762,10.801009333,7.157,0.0,1.725,39.666
431202.05,4580863.19,60.08,9.98,5.675112595784762,11.067359318,7.193,0.0,1.739,41.405
431201.05,4580864.63,60.08,9.98,5.675287128709962,11.30008168,7.221,0.0,1.753,43.158
431200.06,4580866.08,60.08,9.98,5.67563619456036,11.534120486,7.235,0.0,1.756,44.914
431199.06,4580867.51,60.09,9.99,5.676159793335959,11.767232897,7.235,0.0,1.745,46.659
431198.07,4580868.95,60.09,9.99,5.676683392111557,12.00054801,7.221,0.0,1.747,48.406
431197.08,4580870.39,60.09,9.99,5.677206990887155,12.267408675,7.193,0.0,1.747,50.154
431196.09,4580871.81,60.09,9.99,5.677730589662753,12.500449347,7.157,0.0,1.731,51.885
431195.1,4580873.24,60.09,9.99,5.678079655513152,12.734564184,7.107,0.0,1.739,53.624
431194.12,4580874.65,60.09,9.99,5.678603254288751,12.967232932,7.035,0.0,1.717,55.341
431193.16,4580876.03,60.09,9.99,5.6793013859895485,13.200120255,6.949,0.0,1.681,57.022
431192.21,4580877.41,60.09,9.99,5.679999517690346,13.46765237,6.849,0.0,1.675,58.698
431191.27,4580878.76,60.1,10.0,5.680697649391144,13.705621274,6.741,0.0,1.645,60.343
431190.34,4580880.08,60.1,10.0,5.6813957810919415,13.940252358,6.61,0.0,1.615,61.957
431189.44,4580881.38,60.1,10.0,5.682268445717939,14.172339623,6.461,0.0,1.581,63.538
431188.56,4580882.65,60.1,10.0,5.683490176194335,14.401224008,6.289,0.0,1.545,65.083
431187.7,4580883.89,60.1,10.0,5.68488643959593,14.663462225,6.103,0.0,1.509,66.593
431186.87,4580885.09,60.1,10.0,5.686282702997526,14.89474029,5.911,0.0,1.459,68.052
431186.07,4580886.25,60.1,10.0,5.68785349932432,15.127595529,5.717,0.0,1.409,69.461
431185.29,4580887.37,60.1,10.0,5.689773361501514,15.362113367,5.517,0.0,1.365,70.826
431184.54,4580888.45,60.1,10.0,5.691693223678708,15.631697495,5.317,0.0,1.315,72.14
431183.83,4580889.49,60.1,10.0,5.6941366846315,15.869256522,5.103,0.0,1.259,73.4
431183.15,4580890.49,60.1,10.0,5.696580145584292,16.105635691,4.882,0.0,1.209,74.609
431182.49,4580891.45,60.1,10.0,5.699547205312682,16.340345566,4.66,0.0,1.165,75.774
431181.86,4580892.36,60.1,10.0,5.703037863816671,16.57333379,4.424,0.0,1.107,76.881
431181.28,4580893.23,60.1,10.0,5.707401186946656,16.837223014,4.174,0.0,1.046,77.926
431180.73,4580894.05,60.1,10.0,5.71281170762784,17.067228502,3.902,0.0,0.987,78.914
431180.21,4580894.81,60.1,10.0,5.719967557561016,17.29796022,3.625,0.0,0.921,79.835
431179.73,4580895.53,60.11,10.01,5.729392335521784,17.53038045,3.326,0.0,0.865,80.7
431179.3,4580896.17,60.11,10.01,5.742482304911742,17.764350457,3.004,0.0,0.771,81.471
431178.92,4580896.75,60.11,10.01,5.760110130356886,18.03330406,2.647,0.0,0.693,82.164
431178.59,4580897.26,60.11,10.01,5.773898231447641,18.269878846,2.223,0.0,0.607,82.772
431178.32,4580897.67,60.11,10.01,5.777039824101231,18.505058043,1.727,0.0,0.491,83.263
431178.11,4580897.99,60.11,10.01,5.771454770494849,18.738333421,1.286,0.0,0.383,83.645
431177.95,4580898.23,60.11,10.01,5.763426255935676,18.975372952,0.998,0.0,0.288,83.934
431177.81,4580898.45,60.11,10.01,5.758539334030091,19.245273732,1.048,0.0,0.261,84.195
431177.65,4580898.7,60.11,10.01,5.757666669404093,19.476379049,1.353,0.0,0.297,84.492
431177.44,4580899.02,60.11,10.01,5.759237465730889,19.703465384,1.7,0.0,0.383,84.874
431177.2,4580899.41,60.1,10.0,5.76168092668368,19.931426091,1.991,0.0,0.458,85.332
431176.92,4580899.86,60.1,10.0,5.763600788860875,20.160514315,2.224,0.0,0.53,85.862
431176.6,4580900.34,60.11,10.01,5.764124387636472,20.424053471,2.418,0.0,0.577,86.439
431176.27,4580900.87,60.11,10.01,5.76499705226247,20.656583458,2.54,0.0,0.624,87.063
431175.93,4580901.41,60.11,10.01,5.767440513215262,20.891088782,2.662,0.0,0.638,87.702
431175.57,4580901.97,60.11,10.01,5.762902657160076,21.128514181,2.775,0.0,0.666,88.367
431175.18,4580902.56,60.1,10.0,5.751732549947313,21.36574587,2.911,0.0,0.707,89.075
431174.78,4580903.18,60.1,10.0,5.739166179332954,21.637510685,3.06,0.0,0.738,89.812
431174.36,4580903.83,60.1,10.0,5.730439533072982,21.874083944,3.216,0.0,0.774,90.586
431173.92,4580904.51,60.1,10.0,5.727123407494192,22.109082309,3.386,0.0,0.81,91.396
431173.46,4580905.22,60.1,10.0,5.727297940419392,22.342298061,3.552,0.0,0.846,92.242
431172.99,4580905.98,60.1,10.0,5.728170605045388,22.574767258,3.741,0.0,0.894,93.136
431172.48,4580906.77,60.1,10.0,5.7278215391949905,22.836992512,3.921,0.0,0.94,94.076
431171.95,4580907.6,60.1,10.0,5.725727144092597,23.066288226,4.123,0.0,0.985,95.061
431171.4,4580908.47,60.09,9.99,5.722760084364207,23.297051046,4.331,0.0,1.029,96.09
431170.81,4580909.39,60.09,9.99,5.720316623411415,23.529378365,4.534,0.0,1.093,97.183
431170.2,4580910.34,60.09,9.99,5.71874582708462,23.763311968,4.722,0.0,1.129,98.312
431169.57,4580911.32,60.09,9.99,5.718396761234221,24.032209056,4.903,0.0,1.165,99.477
431168.92,4580912.35,60.09,9.99,5.718571294159421,24.269510627,5.069,0.0,1.218,100.695
431168.25,4580913.4,60.09,9.99,5.71874582708462,24.50599299,5.23,0.0,1.246,101.941
431167.56,4580914.49,60.09,9.99,5.718396761234221,24.741402712,5.388,0.0,1.29,103.231
431166.84,4580915.62,60.09,9.99,5.717698629533423,24.974597161,5.541,0.0,1.34,104.571
431166.11,4580916.77,60.09,9.99,5.717000497832625,25.238705517,5.699,0.0,1.362,105.933
431165.36,4580917.96,60.09,9.99,5.716476899057027,25.468545934,5.851,0.0,1.407,107.339
431164.58,4580919.17,60.09,9.99,5.716127833206628,25.698826564,5.995,0.0,1.44,108.779
431163.79,4580920.41,60.09,9.99,5.715953300281429,25.930713506,6.14,0.0,1.47,110.249
431162.98,4580921.69,60.09,9.99,5.71577876735623,26.164435282,6.275,0.0,1.515,111.764
431162.15,4580922.98,60.09,9.99,5.71577876735623,26.433448376,6.392,0.0,1.534,113.298
431161.31,4580924.3,60.09,9.99,5.71577876735623,26.670325012,6.492,0.0,1.565,114.862
431160.45,4580925.64,60.09,9.99,5.71577876735623,26.905819892,6.586,0.0,1.592,116.455
431159.59,4580926.99,60.09,9.99,5.71577876735623,27.139468452,6.65,0.0,1.601,118.055
431158.71,4580928.37,60.09,9.99,5.71577876735623,27.371681104,6.703,0.0,1.637,119.692
431157.83,4580929.75,60.09,9.99,5.715953300281429,27.634691694,6.747,0.0,1.637,121.329
431156.95,4580931.13,60.09,9.99,5.716127833206628,27.866234925,6.775,0.0,1.637,122.965
431156.07,4580932.52,60.09,9.99,5.716302366131827,28.099037039,6.797,0.0,1.645,124.611
431155.18,4580933.91,60.09,9.99,5.716476899057027,28.334118436,6.811,0.0,1.651,126.261
431154.3,4580935.3,60.09,9.99,5.7166514319822275,28.570578848,6.797,0.0,1.645,127.906
431153.41,4580936.69,60.09,9.99,5.716825964907427,28.838962831,6.78,0.0,1.651,129.557
431152.53,4580938.07,60.09,9.99,5.717175030757825,29.07256731,6.747,0.0,1.637,131.194
431151.64,4580939.46,60.09,9.99,5.717524096608225,29.30473876,6.703,0.0,1.651,132.844
431150.77,4580940.82,60.09,9.99,5.718047695383823,29.535150206,6.63,0.0,1.614,134.458
431149.91,4580942.17,60.09,9.99,5.718396761234221,29.766315129,6.55,0.0,1.601,136.059
431149.06,4580943.5,60.1,10.0,5.719094892935019,30.032721418,6.45,0.0,1.578,137.638
431148.22,4580944.81,60.1,10.0,5.719618491710617,30.26789437,6.325,0.0,1.556,139.194
431147.41,4580946.09,60.1,10.0,5.720316623411415,30.504121618,6.198,0.0,1.515,140.709
431146.61,4580947.35,60.1,10.0,5.721363820962612,30.741954011,6.045,0.0,1.493,142.201
431145.83,4580948.57,60.1,10.0,5.7224110185138075,30.97447408,5.873,0.0,1.448,143.649
431145.08,4580949.77,60.1,10.0,5.723632748990204,31.237919544,5.685,0.0,1.415,145.064
431144.34,4580950.92,60.1,10.0,5.7248544794666,31.467795189,5.491,0.0,1.368,146.432
431143.64,4580952.04,60.1,10.0,5.726250742868197,31.699377416,5.302,0.0,1.321,147.752
431142.96,4580953.11,60.11,10.01,5.7278215391949905,31.933148851,5.108,0.0,1.268,149.02
431142.31,4580954.14,60.11,10.01,5.729566868446985,32.20115861,4.892,0.0,1.218,150.238
431141.69,4580955.13,60.11,10.01,5.731661263549379,32.437538383,4.689,0.0,1.168,151.406
431141.1,4580956.07,60.11,10.01,5.734104724502171,32.672425304,4.459,0.0,1.11,152.516
431140.54,4580956.97,60.11,10.01,5.736897251305361,32.905740948,4.229,0.0,1.06,153.576
431140.0,4580957.83,60.11,10.01,5.74038790980935,33.137433648,3.977,0.0,1.015,154.592
431139.5,4580958.64,60.11,10.01,5.744925765864536,33.401771078,3.72,0.0,0.952,155.543
431139.04,4580959.39,60.11,10.01,5.750510819470917,33.634916761,3.445,0.0,0.88,156.423
431138.61,4580960.08,60.11,10.01,5.757841202329294,33.869417488,3.149,0.0,0.813,157.236
431138.22,4580960.7,60.11,10.01,5.7684877107664585,34.10458349,2.825,0.0,0.732,157.969
431137.88,4580961.26,60.11,10.01,5.781228614306016,34.338057423,2.465,0.0,0.655,158.624
431137.59,4580961.74,60.11,10.01,5.789082595939991,34.602657622,2.016,0.0,0.561,159.185
431137.37,4580962.13,60.11,10.01,5.788733530089593,34.834917858,1.544,0.0,0.448,159.632
431137.18,4580962.42,60.11,10.01,5.78332300940841,35.06899074,1.172,0.0,0.347,159.979
431137.04,4580962.68,60.11,10.01,5.777563422876829,35.305123893,1.19,0.0,0.295,160.274
431136.86,4580962.97,60.11,10.01,5.775119961924036,35.539342455,1.539,0.0,0.341,160.616
431136.64,4580963.35,60.1,10.0,5.775643560699636,35.804149816,1.959,0.0,0.439,161.055
431136.39,4580963.81,60.1,10.0,5.77773795580203,36.036350181,2.286,0.0,0.524,161.578
431136.09,4580964.33,60.1,10.0,5.779657817979222,36.269188627,2.483,0.0,0.6,162.179
431135.79,4580964.88,60.1,10.0,5.781228614306016,36.503449222,2.599,0.0,0.626,162.805
431135.46,4580965.45,60.11,10.01,5.802521631180347,36.737829576,2.693,0.0,0.659,163.464
431135.13,4580966.03,60.11,10.01,5.831668629688654,37.003597709,2.805,0.0,0.667,164.131
431134.78,4580966.66,60.11,10.01,5.843536868602214,37.235860328,2.926,0.0,0.721,164.852
431134.41,4580967.29,60.1,10.0,5.833937557716245,37.469765168,3.065,0.0,0.731,165.583
431134.03,4580967.96,60.1,10.0,5.813168139617513,37.704394645,3.218,0.0,0.77,166.353
431133.61,4580968.66,60.1,10.0,5.795016715396773,37.937168231,3.388,0.0,0.816,167.169
431133.2,4580969.4,60.1,10.0,5.786813667912399,38.203015083,3.553,0.0,0.846,168.015
431132.75,4580970.17,60.1,10.0,5.788035398388795,38.437141741,3.722,0.0,0.892,168.907
431132.3,4580970.99,60.1,10.0,5.793445919069978,38.670051576,3.901,0.0,0.935,169.842
431131.82,4580971.84,60.09,9.99,5.797460176349564,38.903514207,4.085,0.0,0.976,170.818
431131.32,4580972.73,60.09,9.99,5.797285643424366,39.138015747,4.282,0.0,1.021,171.839
431130.79,4580973.68,60.09,9.99,5.793794984920376,39.40297415,4.488,0.0,1.088,172.927
431130.24,4580974.65,60.09,9.99,5.789082595939991,39.636462663,4.676,0.0,1.115,174.042
431129.68,4580975.67,60.09,9.99,5.785591937436003,39.870699492,4.86,0.0,1.164,175.206
431129.08,4580976.72,60.09,9.99,5.784195674034408,40.103532823,5.025,0.0,1.209,176.415
431128.48,4580977.81,60.09,9.99,5.784544739884806,40.336500521,5.186,0.0,1.244,177.659
431127.86,4580978.93,60.08,9.98,5.785591937436003,40.603850422,5.334,0.0,1.28,178.94
431127.22,4580980.08,60.08,9.98,5.785941003286401,40.837091672,5.495,0.0,1.316,180.256
431126.56,4580981.27,60.08,9.98,5.785591937436003,41.069733219,5.642,0.0,1.361,181.616
431125.88,4580982.48,60.08,9.98,5.784719272810005,41.303804506,5.795,0.0,1.388,183.004
431125.19,4580983.74,60.08,9.98,5.78367207525881,41.537781832,5.934,0.0,1.437,184.441
431124.48,4580985.03,60.08,9.98,5.782799410632812,41.802965671,6.081,0.0,1.472,185.913
431123.76,4580986.33,60.08,9.98,5.782450344782414,42.036480691,6.22,0.0,1.486,187.4
431123.02,4580987.67,60.08,9.98,5.782275811857214,42.275568689,6.363,0.0,1.531,188.93
431122.26,4580989.05,60.08,9.98,5.782275811857214,42.508237185,6.488,0.0,1.575,190.506
431121.49,4580990.44,60.08,9.98,5.782101278932014,42.73914898,6.614,0.0,1.589,192.095
431120.71,4580991.87,60.08,9.98,5.7817522130816155,43.002059546,6.744,0.0,1.629,193.724
431119.91,4580993.31,60.08,9.98,5.781403147231217,43.233809528,6.838,0.0,1.647,195.371
431119.09,4580994.78,60.09,9.99,5.781054081380818,43.46724655,6.927,0.0,1.683,197.054
431118.27,4580996.27,60.09,9.99,5.781054081380818,43.702463977,6.999,0.0,1.701,198.755
431117.44,4580997.77,60.09,9.99,5.781054081380818,43.93884959,7.053,0.0,1.714,200.469
431116.61,4580999.27,60.09,9.99,5.781228614306016,44.207385002,7.089,0.0,1.714,202.184
431115.77,4581000.79,60.09,9.99,5.781403147231217,44.441919883,7.125,0.0,1.737,203.92
431114.93,4581002.31,60.09,9.99,5.781403147231217,44.682419628,7.138,0.0,1.737,205.657
431114.1,4581003.82,60.09,9.99,5.781403147231217,44.914503982,7.143,0.0,1.723,207.38
431113.26,4581005.34,60.09,9.99,5.781577680156416,45.143337698,7.143,0.0,1.737,209.117
431112.42,4581006.86,60.09,9.99,5.781926746006816,45.408131407,7.116,0.0,1.737,210.853
431111.58,4581008.37,60.09,9.99,5.782275811857214,45.635853672,7.08,0.0,1.728,212.581
431110.75,4581009.87,60.09,9.99,5.782624877707613,45.865111688,7.035,0.0,1.714,214.296
431109.93,4581011.37,60.1,10.0,5.783148476483211,46.095656831,6.968,0.0,1.71,216.005
431109.11,4581012.84,60.1,10.0,5.78349754233361,46.327992933,6.896,0.0,1.683,217.688
431108.31,4581014.3,60.1,10.0,5.7838466081840085,46.59466872,6.802,0.0,1.665,219.353
431107.52,4581015.74,60.1,10.0,5.784370206959607,46.830124409,6.699,0.0,1.642,220.996
431106.74,4581017.15,60.1,10.0,5.7850683386604045,47.067251797,6.574,0.0,1.611,222.607
431105.98,4581018.53,60.1,10.0,5.785766470361202,47.305771437,6.43,0.0,1.575,224.182
431105.24,4581019.9,60.1,10.0,5.786639134987199,47.543234085,6.274,0.0,1.557,225.739
431104.52,4581021.22,60.1,10.0,5.787511799613197,47.812221217,6.09,0.0,1.504,227.243
431103.82,4581022.5,60.1,10.0,5.788558997164395,48.046475939,5.893,0.0,1.459,228.702
431103.14,4581023.75,60.1,10.0,5.789955260565989,48.278964937,5.691,0.0,1.423,230.125
431102.49,4581024.95,60.1,10.0,5.791351523967584,48.509952809,5.499,0.0,1.365,231.49
431101.86,4581026.11,60.1,10.0,5.792922320294379,48.771301716,5.302,0.0,1.32,232.81
431101.26,4581027.23,60.11,10.01,5.794318583695974,49.001340304,5.096,0.0,1.271,234.08
431100.67,4581028.3,60.11,10.01,5.79606391294797,49.232892417,4.876,0.0,1.222,235.302
431100.12,4581029.32,60.11,10.01,5.798332840975562,49.466118833,4.657,0.0,1.159,236.461
431099.6,4581030.3,60.11,10.01,5.801125367778752,49.701214933,4.415,0.0,1.109,237.57
431099.09,4581031.22,60.11,10.01,5.804790559207941,49.971455641,4.165,0.0,1.052,238.622
431098.63,4581032.09,60.11,10.01,5.808979349412727,50.208185511,3.896,0.0,0.984,239.606
431098.19,4581032.91,60.11,10.01,5.81421533716871,50.443379724,3.618,0.0,0.931,240.537
431097.8,4581033.67,60.11,10.01,5.821196654176688,50.676784403,3.319,0.0,0.854,241.391
431097.43,4581034.36,60.11,10.01,5.830446899212258,50.908660225,3.005,0.0,0.783,242.174
431097.11,4581034.98,60.11,10.01,5.842664203976217,51.171432895,2.634,0.0,0.698,242.872
431096.83,4581035.52,60.11,10.01,5.851914449011788,51.402416497,2.214,0.0,0.608,243.48
431096.61,4581035.97,60.11,10.01,5.853485245338582,51.635046664,1.727,0.0,0.501,243.981
431096.43,4581036.3,60.11,10.01,5.849470988058996,51.869295978,1.275,0.0,0.376,244.357
431096.3,4581036.57,60.11,10.01,5.844060467377814,52.105145278,0.972,0.0,0.3,244.657
431096.19,4581036.77,60.11,10.01,5.840744341799025,52.374514983,0.762,0.0,0.228,244.885
431096.11,4581036.94,60.11,10.01,5.840220743023426,52.609619598,0.637,0.0,0.188,245.073
431096.03,4581037.09,60.11,10.01,5.8419660722754205,52.842244186,0.691,0.0,0.17,245.243
431095.93,4581037.28,60.11,10.01,5.844060467377814,53.07375329,0.892,0.0,0.215,245.458
431095.81,4581037.52,60.11,10.01,5.8452821978542095,53.304031001,1.106,0.0,0.268,245.726
431095.67,4581037.79,60.11,10.01,5.845107664929011,53.568334456,1.275,0.0,0.304,246.03
431095.5,4581038.1,60.11,10.01,5.844235000303013,53.802089057,1.454,0.0,0.354,246.384
431095.32,4581038.44,60.11,10.01,5.843362335677015,54.03760724,1.669,0.0,0.385,246.768
431095.1,4581038.85,60.11,10.01,5.842838736901417,54.274109765,1.928,0.0,0.465,247.234
431094.86,4581039.3,60.11,10.01,5.842489671051019,54.51320981,2.156,0.0,0.51,247.744
431094.59,4581039.79,60.1,10.0,5.841442473499821,54.781069766,2.33,0.0,0.559,248.303
431094.3,4581040.33,60.1,10.0,5.8365555515942384,55.017016778,2.446,0.0,0.613,248.916
431094.0,4581040.88,60.1,10.0,5.8290506358106615,55.247809198,2.58,0.0,0.626,249.542
431093.68,4581041.46,60.1,10.0,5.822069318802685,55.477021919,2.728,0.0,0.662,250.205
431093.35,4581042.06,60.1,10.0,5.817705995672698,55.70457852,2.885,0.0,0.685,250.89
431093.0,4581042.72,60.1,10.0,5.816135199345904,55.965615787,3.063,0.0,0.747,251.637
431092.63,4581043.4,60.1,10.0,5.815960666420704,56.196206346,3.242,0.0,0.774,252.411
