x(m),y(m),z(m),zRelative(m),heading(rad),t(s),s(m/s),a(m/s²),Δd(m),d(m)
429946.61,4582586.92,20.01,10.01,5.521174555758862,393.543305835,8.581,0.0,2.038,2162.351
429945.24,4582588.41,20.01,10.01,5.521000022833662,393.810115394,8.51,0.0,2.024,2164.375
429943.86,4582589.9,20.01,10.01,5.520650956983264,394.043011298,8.445,0.0,2.031,2166.406
429942.5,4582591.35,20.01,10.01,5.520301891132865,394.276582645,8.353,0.0,1.988,2168.394
429941.15,4582592.8,20.01,10.01,5.520127358207666,394.510653761,8.219,0.0,1.981,2170.375
429939.82,4582594.21,20.01,10.01,5.520127358207666,394.743277654,8.063,0.0,1.938,2172.313
429938.53,4582595.6,20.01,10.01,5.520127358207666,395.009889557,7.978,0.0,1.896,2174.21
429937.24,4582596.97,20.01,10.01,5.520127358207666,395.243342059,7.773,0.0,1.882,2176.092
429936.0,4582598.29,20.01,10.01,5.5199528252824654,395.47667343,7.611,0.0,1.811,2177.903
429934.78,4582599.6,20.01,10.01,5.519778292357266,395.709930819,7.426,0.0,1.79,2179.693
429933.59,4582600.85,20.01,10.01,5.519429226506868,395.943615512,7.193,0.0,1.726,2181.419
429932.44,4582602.09,20.01,10.01,5.519080160656469,396.20970865,7.009,0.0,1.691,2183.11
429931.32,4582603.27,20.01,10.01,5.518905627731269,396.443651506,6.79,0.0,1.627,2184.737
429930.23,4582604.43,20.01,10.01,5.518905627731269,396.676236422,6.591,0.0,1.592,2186.328
429929.17,4582605.55,20.01,10.01,5.518905627731269,396.909746123,6.372,0.0,1.542,2187.87
429928.16,4582606.64,20.01,10.01,5.518905627731269,397.143962859,6.16,0.0,1.486,2189.356
429927.18,4582607.68,20.01,10.01,5.51873109480607,397.409704201,5.927,0.0,1.429,2190.785
429926.24,4582608.66,20.0,10.0,5.51855656188087,397.643293839,5.7,0.0,1.358,2192.143
429925.34,4582609.63,20.0,10.0,5.518207496030471,397.876692962,5.467,0.0,1.323,2193.467
429924.47,4582610.55,20.0,10.0,5.517858430180073,398.109938424,5.226,0.0,1.266,2194.733
429923.65,4582611.42,20.0,10.0,5.517683897254873,398.343758849,4.972,0.0,1.196,2195.928
429922.86,4582612.25,20.0,10.0,5.5175093643296735,398.609667933,4.703,0.0,1.146,2197.074
429922.12,4582613.03,20.0,10.0,5.517683897254873,398.843352881,4.434,0.0,1.075,2198.149
429921.43,4582613.76,20.0,10.0,5.517858430180073,399.076707348,4.144,0.0,1.004,2199.154
429920.78,4582614.45,20.0,10.0,5.517683897254873,399.310050756,3.847,0.0,0.948,2200.102
429920.19,4582615.07,20.0,10.0,5.517334831404474,399.54372225,3.543,0.0,0.856,2200.958
429919.65,4582615.65,20.0,10.0,5.516985765554076,399.809912873,3.211,0.0,0.792,2201.75
429919.17,4582616.16,20.0,10.0,5.516811232628877,400.043121893,2.85,0.0,0.7,2202.451
429918.74,4582616.61,20.0,10.0,5.516636699703676,400.276832454,2.425,0.0,0.622,2203.073
429918.4,4582616.97,20.0,10.0,5.516811232628877,400.50982238,1.931,0.0,0.495,2203.568
429918.13,4582617.25,19.99,9.99,5.517160298479276,400.743868402,1.471,0.0,0.389,2203.957
429917.93,4582617.46,19.99,9.99,5.517334831404474,401.009733226,1.146,0.0,0.29,2204.247
429917.78,4582617.62,19.99,9.99,5.517334831404474,401.243187199,0.955,0.0,0.219,2204.466
429917.63,4582617.77,19.99,9.99,5.517683897254873,401.477224167,1.047,0.0,0.212,2204.679
429917.45,4582617.95,19.98,9.98,5.517334831404474,401.709868384,1.351,0.0,0.255,2204.933
429917.2,4582618.19,19.98,9.98,5.516287633853278,401.943216276,1.684,0.0,0.347,2205.28
429916.9,4582618.47,19.97,9.97,5.51576403507768,402.210305218,1.968,0.0,0.41,2205.69
429916.55,4582618.81,19.97,9.97,5.516113100928079,402.443023727,2.209,0.0,0.488,2206.178
429916.17,4582619.18,19.98,9.98,5.516636699703676,402.676790229,2.408,0.0,0.53,2206.708
429915.76,4582619.57,19.98,9.98,5.511924310723292,402.910287003,2.55,0.0,0.566,2207.274
429915.32,4582619.98,19.98,9.98,5.459389900238262,403.176110741,2.652,0.0,0.601,2207.876
429914.85,4582620.41,19.98,9.98,5.392892855737279,403.410304014,2.759,0.0,0.637,2208.513
429914.37,4582620.85,19.99,9.99,5.359208001173789,403.64335292,2.907,0.0,0.651,2209.164
429913.88,4582621.33,19.99,9.99,5.367411048658162,403.876197259,3.052,0.0,0.686,2209.85
429913.36,4582621.83,19.99,9.99,5.399350573969658,404.110390254,3.184,0.0,0.721,2210.571
429912.82,4582622.37,19.99,9.99,5.42971930295436,404.376424008,3.377,0.0,0.764,2211.335
429912.24,4582622.94,19.99,9.99,5.442634739419118,404.609689035,3.556,0.0,0.813,2212.148
429911.61,4582623.53,19.99,9.99,5.438096883363931,404.843883249,3.756,0.0,0.863,2213.011
429910.96,4582624.15,19.99,9.99,5.425705045674772,405.07674681,3.935,0.0,0.898,2213.909
429910.26,4582624.78,19.99,9.99,5.415931201863604,405.309725545,4.134,0.0,0.942,2214.851
429909.53,4582625.46,19.99,9.99,5.413836806761211,405.577065454,4.344,0.0,0.998,2215.849
429908.77,4582626.16,19.99,9.99,5.418549195741595,405.809846632,4.556,0.0,1.033,2216.882
429907.98,4582626.92,19.99,9.99,5.425879578599972,406.042854218,4.746,0.0,1.096,2217.978
429907.15,4582627.69,19.99,9.99,5.431115566355954,406.277201995,4.931,0.0,1.132,2219.11
429906.29,4582628.51,19.99,9.99,5.432686362682749,406.510713583,5.108,0.0,1.188,2220.299
429905.39,4582629.34,19.99,9.99,5.431290099281155,406.775901828,5.266,0.0,1.224,2221.523
429904.46,4582630.19,20.0,10.0,5.428672105403162,407.009725639,5.408,0.0,1.26,2222.783
429903.51,4582631.08,20.0,10.0,5.426926776151168,407.244008914,5.605,0.0,1.302,2224.085
429902.53,4582631.99,20.0,10.0,5.426926776151168,407.47676588,5.727,0.0,1.337,2225.422
429901.53,4582632.91,20.0,10.0,5.427973973702365,407.709803689,5.867,0.0,1.359,2226.781
429900.49,4582633.87,20.0,10.0,5.42954477002916,407.982243461,6.086,0.0,1.415,2228.196
429899.44,4582634.84,20.0,10.0,5.430766500505556,408.215921736,6.165,0.0,1.429,2229.626
429898.36,4582635.84,20.0,10.0,5.431115566355954,408.447569627,6.312,0.0,1.472,2231.098
429897.24,4582636.88,20.0,10.0,5.431115566355954,408.677678397,6.532,0.0,1.528,2232.626
429896.1,4582637.92,20.0,10.0,5.430591967580357,408.907515146,6.595,0.0,1.543,2234.169
429894.94,4582639.0,20.0,10.0,5.430417434655157,409.171935257,6.753,0.0,1.585,2235.754
429893.75,4582640.09,20.0,10.0,5.430242901729957,409.405290503,6.895,0.0,1.614,2237.368
429892.54,4582641.2,20.0,10.0,5.430591967580357,409.640347793,6.986,0.0,1.642,2239.01
429891.31,4582642.33,20.0,10.0,5.431115566355954,409.876772234,7.115,0.0,1.67,2240.68
429890.04,4582643.47,20.0,10.0,5.431464632206353,410.113506776,7.264,0.0,1.707,2242.387
429888.78,4582644.64,20.0,10.0,5.431813698056753,410.381668657,7.374,0.0,1.719,2244.106
429887.47,4582645.83,20.0,10.0,5.432162763907152,410.614951593,7.453,0.0,1.77,2245.876
429886.16,4582647.04,20.0,10.0,5.43233729683235,410.848093937,7.574,0.0,1.783,2247.659
429884.82,4582648.26,20.0,10.0,5.43233729683235,411.081327184,7.666,0.0,1.812,2249.471
429883.47,4582649.48,20.0,10.0,5.43251182975755,411.309954274,7.723,0.0,1.82,2251.291
429882.11,4582650.73,20.0,10.0,5.432860895607949,411.572375321,7.808,0.0,1.847,2253.138
429880.72,4582651.98,20.0,10.0,5.433209961458348,411.803788364,7.986,0.0,1.869,2255.008
429879.31,4582653.26,20.0,10.0,5.433559027308747,412.037031319,8.062,0.0,1.904,2256.912
429877.9,4582654.55,20.0,10.0,5.433908093159146,412.271609048,8.098,0.0,1.911,2258.823
429876.48,4582655.84,20.0,10.0,5.434082626084345,412.50789232,8.162,0.0,1.918,2260.741
429875.03,4582657.16,20.0,10.0,5.434257159009545,412.780926677,8.233,0.0,1.961,2262.702
429873.59,4582658.47,20.0,10.0,5.434431691934744,413.016991018,8.289,0.0,1.947,2264.649
429872.12,4582659.81,20.0,10.0,5.434431691934744,413.251369272,8.359,0.0,1.989,2266.638
429870.66,4582661.15,20.0,10.0,5.434606224859943,413.484110929,8.431,0.0,1.982,2268.62
429869.17,4582662.5,20.0,10.0,5.434780757785143,413.715337775,8.525,0.0,2.011,2270.63
429867.66,4582663.86,20.0,10.0,5.435129823635542,413.977451179,8.602,0.0,2.032,2272.663
429866.14,4582665.24,20.0,10.0,5.435478889485941,414.207971813,8.643,0.0,2.053,2274.716
429864.62,4582666.62,20.0,10.0,5.435827955336339,414.440101015,8.657,0.0,2.053,2276.769
429863.11,4582668.01,20.0,10.0,5.436002488261538,414.673961796,8.656,0.0,2.052,2278.821
429861.58,4582669.4,20.0,10.0,5.435827955336339,414.909291057,8.656,0.0,2.067,2280.888
429860.06,4582670.79,20.0,10.0,5.43565342241114,415.179476885,8.649,0.0,2.06,2282.948
429858.56,4582672.17,20.0,10.0,5.435304356560741,415.41500851,8.635,0.0,2.038,2284.986
429857.06,4582673.55,20.0,10.0,5.435129823635542,415.65149411,8.614,0.0,2.038,2287.024
429855.55,4582674.92,20.0,10.0,5.434780757785143,415.884751044,8.546,0.0,2.039,2289.063
429854.06,4582676.28,20.0,10.0,5.434606224859943,416.115470498,8.483,0.0,2.017,2291.08
429852.57,4582677.62,20.0,10.0,5.434606224859943,416.378736358,8.44,0.0,2.004,2293.084
429851.11,4582678.95,20.0,10.0,5.434780757785143,416.612879862,8.39,0.0,1.975,2295.059
429849.63,4582680.29,20.0,10.0,5.434955290710343,416.84177522,8.353,0.0,1.996,2297.056
429848.17,4582681.61,20.0,10.0,5.434780757785143,417.072277132,8.275,0.0,1.968,2299.024
429846.74,4582682.92,20.0,10.0,5.434606224859943,417.304329769,8.124,0.0,1.939,2300.963
429845.33,4582684.21,20.0,10.0,5.434082626084345,417.571407138,8.021,0.0,1.911,2302.875
429843.94,4582685.48,20.0,10.0,5.433384494383547,417.806927848,7.906,0.0,1.883,2304.757
429842.57,4582686.73,20.0,10.0,5.432686362682749,418.044103234,7.764,0.0,1.855,2306.612
429841.22,4582687.94,20.0,10.0,5.432162763907152,418.281477867,7.569,0.0,1.813,2308.425
429839.91,4582689.12,20.0,10.0,5.431813698056753,418.517225678,7.425,0.0,1.763,2310.188
429838.62,4582690.29,20.0,10.0,5.431464632206353,418.784320545,7.208,0.0,1.742,2311.929
429837.36,4582691.41,20.0,10.0,5.431115566355954,419.017624486,7.023,0.0,1.686,2313.615
429836.15,4582692.5,20.0,10.0,5.430941033430756,419.248270667,6.811,0.0,1.629,2315.244
429834.97,4582693.55,20.0,10.0,5.430591967580357,419.477785311,6.612,0.0,1.58,2316.823
429833.83,4582694.57,20.0,10.0,5.430242901729957,419.741210904,6.414,0.0,1.53,2318.353
429832.71,4582695.56,20.0,10.0,5.42971930295436,419.973882754,6.196,0.0,1.495,2319.848
429831.65,4582696.52,20.0,10.0,5.42954477002916,420.208110302,5.982,0.0,1.43,2321.278
429830.61,4582697.44,19.99,9.99,5.42937023710396,420.443832694,5.763,0.0,1.389,2322.667
429829.62,4582698.31,19.99,9.99,5.429195704178761,420.680580895,5.536,0.0,1.318,2323.984
429828.68,4582699.15,19.99,9.99,5.429195704178761,420.951852184,5.288,0.0,1.261,2325.245
429827.77,4582699.95,19.99,9.99,5.429195704178761,421.185400259,5.04,0.0,1.212,2326.457
429826.9,4582700.73,19.99,9.99,5.429021171253561,421.417245398,4.786,0.0,1.168,2327.625
429826.09,4582701.44,19.99,9.99,5.428846638328363,421.647517693,4.517,0.0,1.077,2328.702
429825.32,4582702.12,19.99,9.99,5.428672105403162,421.877118884,4.246,0.0,1.027,2329.73
429824.61,4582702.76,19.99,9.99,5.4283230395527635,422.141121148,3.963,0.0,0.956,2330.685
429823.94,4582703.34,19.99,9.99,5.428148506627564,422.374140226,3.666,0.0,0.886,2331.572
429823.33,4582703.88,19.99,9.99,5.427799440777165,422.609034309,3.347,0.0,0.815,2332.386
429822.78,4582704.36,19.99,9.99,5.427275842001567,422.846225388,3.0,0.0,0.73,2333.116
429822.29,4582704.8,19.98,9.98,5.426926776151168,423.082285378,2.617,0.0,0.659,2333.775
429821.88,4582705.16,19.98,9.98,5.427101309076368,423.349529984,2.164,0.0,0.546,2334.321
429821.56,4582705.45,19.98,9.98,5.427624907851966,423.583355205,1.682,0.0,0.432,2334.752
429821.31,4582705.66,19.98,9.98,5.428148506627564,423.814310183,1.37,0.0,0.326,2335.079
429821.08,4582705.87,19.98,9.98,5.426228644450371,424.04472057,1.502,0.0,0.311,2335.39
429820.8,4582706.14,19.97,9.97,5.425355979824374,424.276555875,1.939,0.0,0.389,2335.779
429820.45,4582706.47,19.96,9.96,5.427101309076368,424.543118339,2.377,0.0,0.481,2336.26
429820.04,4582706.89,19.96,9.96,5.428672105403162,424.778557265,2.652,0.0,0.587,2336.847
429819.61,4582707.35,19.97,9.97,5.430766500505556,425.014592198,2.779,0.0,0.63,2337.477
429819.16,4582707.82,19.97,9.97,5.475970528132208,425.248955619,2.864,0.0,0.651,2338.128
429818.71,4582708.32,19.98,9.98,5.545783698211983,425.481718846,2.949,0.0,0.673,2338.8
429818.25,4582708.85,19.98,9.98,5.585402672232253,425.745629212,3.062,0.0,0.702,2339.502
429817.76,4582709.37,19.98,9.98,5.578770421074675,425.977917661,3.196,0.0,0.714,2340.217
429817.24,4582709.92,19.98,9.98,5.54334023725919,426.212151895,3.311,0.0,0.757,2340.974
429816.69,4582710.48,19.98,9.98,5.5075609875933065,426.448194582,3.459,0.0,0.785,2341.758
429816.12,4582711.09,19.98,9.98,5.490456760923761,426.681488818,3.649,0.0,0.835,2342.593
429815.53,4582711.73,19.98,9.98,5.493598353577352,426.945841107,3.804,0.0,0.87,2343.464
429814.93,4582712.4,19.98,9.98,5.507211921742908,427.178507362,3.995,0.0,0.899,2344.363
429814.29,4582713.12,19.99,9.99,5.51873109480607,427.412679928,4.165,0.0,0.963,2345.326
429813.62,4582713.86,19.99,9.99,5.52187268745966,427.647829345,4.349,0.0,0.998,2346.325
429812.92,4582714.63,19.99,9.99,5.516636699703676,427.881516224,4.533,0.0,1.041,2347.365
429812.18,4582715.42,19.99,9.99,5.508433652219304,428.146278922,4.731,0.0,1.082,2348.448
429811.41,4582716.25,19.99,9.99,5.501975933986924,428.379285224,4.914,0.0,1.132,2349.58
429810.62,4582717.12,19.99,9.99,5.499881538884531,428.616160953,5.056,0.0,1.175,2350.755
429809.81,4582718.01,19.99,9.99,5.501277802286126,428.847745491,5.233,0.0,1.203,2351.959
429808.95,4582718.92,19.99,9.99,5.503895796164119,429.078318515,5.367,0.0,1.252,2353.211
429808.08,4582719.87,19.99,9.99,5.505641125416113,429.343188507,5.523,0.0,1.288,2354.499
429807.19,4582720.85,19.99,9.99,5.5054665924909125,429.577404262,5.685,0.0,1.324,2355.823
429806.26,4582721.84,19.99,9.99,5.503895796164119,429.812968752,5.805,0.0,1.358,2357.181
429805.32,4582722.86,19.99,9.99,5.501975933986924,430.048777074,6.018,0.0,1.387,2358.568
429804.34,4582723.9,20.0,10.0,5.500754203510528,430.282887356,6.131,0.0,1.429,2359.997
429803.34,4582724.97,20.0,10.0,5.50040513766013,430.548098609,6.216,0.0,1.465,2361.462
429802.33,4582726.07,20.0,10.0,5.500928736435728,430.779253632,6.449,0.0,1.493,2362.955
429801.28,4582727.19,20.0,10.0,5.501452335211326,431.011603571,6.569,0.0,1.535,2364.49
429800.22,4582728.33,20.0,10.0,5.501452335211326,431.245493314,6.661,0.0,1.557,2366.047
429799.12,4582729.5,20.0,10.0,5.501277802286126,431.481338247,6.838,0.0,1.606,2367.653
429798.01,4582730.69,20.0,10.0,5.500928736435728,431.747643788,6.958,0.0,1.627,2369.28
429796.86,4582731.89,20.0,10.0,5.50057967058533,431.979573677,7.043,0.0,1.662,2370.942
429795.72,4582733.13,20.0,10.0,5.50023060473493,432.212359762,7.149,0.0,1.684,2372.626
429794.56,4582734.37,20.0,10.0,5.50005607180973,432.446722618,7.29,0.0,1.698,2374.324
429793.36,4582735.62,20.0,10.0,5.499881538884531,432.681406605,7.375,0.0,1.733,2376.057
429792.16,4582736.89,20.0,10.0,5.50005607180973,432.947156052,7.46,0.0,1.747,2377.804
429790.94,4582738.18,20.0,10.0,5.50040513766013,433.179378274,7.58,0.0,1.776,2379.58
429789.71,4582739.49,20.0,10.0,5.50057967058533,433.413122776,7.701,0.0,1.797,2381.377
429788.45,4582740.82,20.0,10.0,5.50040513766013,433.64782117,7.771,0.0,1.832,2383.209
429787.17,4582742.16,20.0,10.0,5.50023060473493,433.881091198,7.856,0.0,1.853,2385.062
429785.89,4582743.51,20.0,10.0,5.50023060473493,434.145939604,7.934,0.0,1.86,2386.922
429784.58,4582744.88,20.0,10.0,5.50023060473493,434.379514044,8.019,0.0,1.896,2388.818
429783.27,4582746.25,20.0,10.0,5.50040513766013,434.614293933,8.089,0.0,1.896,2390.714
429781.94,4582747.64,20.0,10.0,5.500754203510528,434.847812547,8.174,0.0,1.924,2392.637
429780.6,4582749.05,20.0,10.0,5.500928736435728,435.079949444,8.252,0.0,1.945,2394.583
429779.25,4582750.46,20.0,10.0,5.501277802286126,435.345944974,8.33,0.0,1.952,2396.535
429777.88,4582751.9,20.0,10.0,5.501452335211326,435.580741569,8.386,0.0,1.988,2398.522
429776.5,4582753.34,20.0,10.0,5.501452335211326,435.814492026,8.464,0.0,1.994,2400.517
429775.11,4582754.8,20.0,10.0,5.501626868136526,436.04670548,8.535,0.0,2.016,2402.533
429773.7,4582756.26,20.0,10.0,5.501626868136526,436.312423324,8.584,0.0,2.03,2404.562
429772.29,4582757.72,20.0,10.0,5.5018014010617255,436.547091297,8.613,0.0,2.03,2406.592
429770.88,4582759.19,20.0,10.0,5.501975933986924,436.781120946,8.627,0.0,2.037,2408.629
429769.48,4582760.67,20.0,10.0,5.5021504669121235,437.01353211,8.655,0.0,2.037,2410.666
429768.08,4582762.15,20.0,10.0,5.5021504669121235,437.246057123,8.641,0.0,2.037,2412.703
429766.68,4582763.61,20.0,10.0,5.501975933986924,437.513396705,8.535,0.0,2.023,2414.726
429765.27,4582765.06,20.0,10.0,5.5018014010617255,437.747617413,8.514,0.0,2.023,2416.749
429763.88,4582766.5,20.0,10.0,5.501626868136526,437.98022363,8.492,0.0,2.001,2418.75
429762.48,4582767.94,20.0,10.0,5.501626868136526,438.212984859,8.464,0.0,2.008,2420.758
429761.11,4582769.39,20.0,10.0,5.5018014010617255,438.447258532,8.436,0.0,1.995,2422.753
429759.73,4582770.82,20.0,10.0,5.501975933986924,438.713783219,8.408,0.0,1.987,2424.741
429758.37,4582772.26,20.0,10.0,5.5018014010617255,438.946334798,8.351,0.0,1.981,2426.721
429757.01,4582773.68,20.01,10.01,5.501277802286126,439.180332916,8.266,0.0,1.966,2428.688
429755.68,4582775.08,20.01,10.01,5.50057967058533,439.414011222,8.139,0.0,1.931,2430.619
429754.36,4582776.46,20.01,10.01,5.499881538884531,439.646820119,8.012,0.0,1.91,2432.528
429753.06,4582777.82,20.01,10.01,5.499183407183733,439.913700634,7.906,0.0,1.881,2434.41
429751.76,4582779.15,20.01,10.01,5.4988343413333345,440.146694708,7.757,0.0,1.86,2436.269
429750.5,4582780.45,20.01,10.01,5.498659808408135,440.380494685,7.594,0.0,1.81,2438.08
429749.26,4582781.73,20.01,10.01,5.498310742557736,440.61353846,7.453,0.0,1.782,2439.862
429748.06,4582782.97,20.01,10.01,5.497961676707337,440.847297824,7.234,0.0,1.726,2441.588
429746.89,4582784.17,20.0,10.0,5.4976126108569385,441.113209485,7.036,0.0,1.676,2443.263
429745.75,4582785.34,20.0,10.0,5.49708901208134,441.346955874,6.845,0.0,1.634,2444.897
429744.64,4582786.47,20.0,10.0,5.496565413305742,441.580629484,6.64,0.0,1.584,2446.481
429743.56,4582787.57,20.0,10.0,5.496216347455344,441.812592601,6.435,0.0,1.542,2448.023
429742.52,4582788.62,20.0,10.0,5.495692748679745,442.046070012,6.223,0.0,1.478,2449.5
429741.51,4582789.65,20.0,10.0,5.495343682829346,442.314012065,6.018,0.0,1.443,2450.943
429740.54,4582790.64,20.0,10.0,5.495169149904147,442.547761267,5.791,0.0,1.386,2452.329
429739.6,4582791.58,20.0,10.0,5.494994616978948,442.780000081,5.572,0.0,1.329,2453.658
429738.71,4582792.49,20.0,10.0,5.494820084053748,443.01283018,5.325,0.0,1.273,2454.931
429737.86,4582793.35,19.99,9.99,5.494820084053748,443.248745634,5.084,0.0,1.209,2456.14
429737.04,4582794.18,19.99,9.99,5.494471018203349,443.514227592,4.837,0.0,1.167,2457.307
429736.27,4582794.96,19.99,9.99,5.49412195235295,443.745864522,4.575,0.0,1.096,2458.403
429735.55,4582795.7,19.99,9.99,5.49377288650255,443.978950459,4.306,0.0,1.032,2459.436
429734.87,4582796.38,19.99,9.99,5.493423820652152,444.213672091,4.016,0.0,0.962,2460.397
429734.23,4582797.02,19.99,9.99,5.493074754801754,444.44849436,3.72,0.0,0.905,2461.302
429733.65,4582797.6,19.99,9.99,5.492551156026154,444.714532355,3.409,0.0,0.82,2462.123
429733.12,4582798.13,19.99,9.99,5.492376623100956,444.946305522,3.083,0.0,0.75,2462.872
429732.65,4582798.6,19.98,9.98,5.492551156026154,445.179484747,2.723,0.0,0.665,2463.537
429732.25,4582799.0,19.98,9.98,5.492900221876554,445.414107204,2.284,0.0,0.566,2464.103
429731.93,4582799.33,19.98,9.98,5.493598353577352,445.648583255,1.797,0.0,0.46,2464.562
429731.68,4582799.56,19.98,9.98,5.493947419427751,445.915532187,1.379,0.0,0.34,2464.902
429731.5,4582799.76,19.97,9.97,5.49377288650255,446.146703485,1.097,0.0,0.269,2465.171
429731.35,4582799.9,19.97,9.97,5.493249287726953,446.378902376,0.941,0.0,0.205,2465.376
429731.21,4582800.04,19.97,9.97,5.493074754801754,446.612841361,1.041,0.0,0.198,2465.574
429731.03,4582800.2,19.97,9.97,5.492551156026154,446.847901415,1.331,0.0,0.241,2465.815
429730.8,4582800.43,19.96,9.96,5.4922020901757564,447.114927963,1.656,0.0,0.325,2466.14
429730.53,4582800.71,19.96,9.96,5.492376623100956,447.34719429,1.939,0.0,0.389,2466.529
429730.2,4582801.04,19.97,9.97,5.492900221876554,447.580233241,2.18,0.0,0.467,2466.996
