x(m),y(m),z(m),zRelative(m),heading(rad),t(s),s(m/s),a(m/s²),Δd(m),d(m)
430195.11,4582588.27,20.01,10.01,5.520650956983264,393.825128402,8.473,0.0,2.017,2164.195
430193.73,4582589.74,20.01,10.01,5.520301891132865,394.060916189,8.438,0.0,2.016,2166.211
430192.37,4582591.19,20.01,10.01,5.5199528252824654,394.297319254,8.332,0.0,1.988,2168.199
430191.02,4582592.64,20.01,10.01,5.520127358207666,394.532381274,8.226,0.0,1.981,2170.18
430189.69,4582594.05,20.01,10.01,5.520127358207666,394.765714676,8.099,0.0,1.938,2172.119
430188.4,4582595.44,20.01,10.01,5.520301891132865,395.030484102,7.9,0.0,1.896,2174.015
430187.13,4582596.8,20.01,10.01,5.520127358207666,395.260663221,7.78,0.0,1.861,2175.876
430185.88,4582598.13,20.01,10.01,5.5199528252824654,395.498981393,7.596,0.0,1.825,2177.701
430184.67,4582599.42,20.01,10.01,5.5196037594320675,395.728266596,7.384,0.0,1.769,2179.47
430183.48,4582600.68,20.01,10.01,5.5196037594320675,395.959328633,7.199,0.0,1.733,2181.203
430182.32,4582601.91,20.01,10.01,5.519429226506868,396.22480737,6.974,0.0,1.691,2182.894
430181.2,4582603.1,20.01,10.01,5.519429226506868,396.459202239,6.782,0.0,1.634,2184.528
430180.12,4582604.25,20.01,10.01,5.519429226506868,396.695245911,6.571,0.0,1.578,2186.105
430179.07,4582605.37,20.01,10.01,5.519429226506868,396.931488358,6.365,0.0,1.535,2187.641
430178.05,4582606.44,20.01,10.01,5.519254693581669,397.166666756,6.132,0.0,1.478,2189.119
430177.08,4582607.49,20.0,10.0,5.519080160656469,397.432423999,5.913,0.0,1.429,2190.548
430176.14,4582608.48,20.0,10.0,5.51873109480607,397.66397712,5.686,0.0,1.365,2191.914
430175.24,4582609.44,20.0,10.0,5.51855656188087,397.894209298,5.453,0.0,1.316,2193.229
430174.38,4582610.35,20.0,10.0,5.5183820289556715,398.125892562,5.198,0.0,1.252,2194.482
430173.55,4582611.22,20.0,10.0,5.518032963105273,398.359179254,4.95,0.0,1.202,2195.684
430172.78,4582612.05,20.0,10.0,5.518032963105273,398.627343908,4.682,0.0,1.132,2196.816
430172.05,4582612.82,20.0,10.0,5.517858430180073,398.863590246,4.406,0.0,1.061,2197.877
430171.36,4582613.55,20.0,10.0,5.517683897254873,399.098980273,4.123,0.0,1.004,2198.882
430170.72,4582614.23,20.0,10.0,5.5175093643296735,399.332417163,3.819,0.0,0.934,2199.815
430170.13,4582614.85,20.0,10.0,5.517160298479276,399.564803804,3.515,0.0,0.856,2200.671
430169.59,4582615.42,20.0,10.0,5.516811232628877,399.82806894,3.182,0.0,0.785,2201.456
430169.12,4582615.92,20.0,10.0,5.516462166778477,400.060159725,2.822,0.0,0.686,2202.143
430168.7,4582616.36,20.0,10.0,5.516287633853278,400.294461421,2.383,0.0,0.608,2202.751
430168.36,4582616.72,20.0,10.0,5.516462166778477,400.530143272,1.881,0.0,0.495,2203.246
430168.1,4582616.99,19.99,9.99,5.516811232628877,400.7642769,1.442,0.0,0.375,2203.621
430167.91,4582617.2,19.99,9.99,5.516985765554076,401.029628084,1.124,0.0,0.283,2203.904
430167.75,4582617.36,19.99,9.99,5.516985765554076,401.261748482,0.94,0.0,0.226,2204.13
430167.61,4582617.5,19.99,9.99,5.517334831404474,401.495125679,1.04,0.0,0.198,2204.328
430167.42,4582617.68,19.98,9.98,5.516985765554076,401.73009026,1.337,0.0,0.262,2204.59
430167.18,4582617.92,19.98,9.98,5.51593856800288,401.963862646,1.67,0.0,0.339,2204.93
430166.89,4582618.2,19.98,9.98,5.5154149692272805,402.228747138,1.947,0.0,0.403,2205.333
430166.54,4582618.52,19.98,9.98,5.51593856800288,402.46170921,2.195,0.0,0.474,2205.807
430166.16,4582618.89,19.98,9.98,5.516462166778477,402.696263186,2.393,0.0,0.53,2206.337
430165.75,4582619.29,19.98,9.98,5.511051646097295,402.930191816,2.536,0.0,0.573,2206.91
430165.32,4582619.7,19.98,9.98,5.458517235612265,403.195437575,2.644,0.0,0.594,2207.504
430164.86,4582620.13,19.98,9.98,5.393940053288476,403.428675961,2.752,0.0,0.63,2208.134
430164.38,4582620.57,19.99,9.99,5.362175060902179,403.663214617,2.871,0.0,0.651,2208.785
430163.88,4582621.04,19.99,9.99,5.371425305937748,403.896470343,3.037,0.0,0.686,2209.471
430163.37,4582621.55,19.99,9.99,5.403190298324045,404.128755343,3.193,0.0,0.721,2210.193
430162.82,4582622.09,19.99,9.99,5.433035428533149,404.395590124,3.362,0.0,0.771,2210.963
430162.25,4582622.65,19.99,9.99,5.445950864997907,404.630241137,3.561,0.0,0.799,2211.762
430161.63,4582623.25,19.99,9.99,5.441238476017522,404.863246265,3.722,0.0,0.863,2212.625
430160.98,4582623.85,19.99,9.99,5.428672105403162,405.09531574,3.913,0.0,0.885,2213.51
430160.29,4582624.49,19.99,9.99,5.418549195741595,405.328763125,4.132,0.0,0.941,2214.451
430159.56,4582625.16,19.99,9.99,5.4162802677140025,405.596615497,4.33,0.0,0.991,2215.442
430158.8,4582625.88,19.99,9.99,5.420818123769188,405.829909425,4.548,0.0,1.047,2216.489
430158.02,4582626.63,19.99,9.99,5.427624907851966,406.062128302,4.746,0.0,1.082,2217.571
430157.19,4582627.42,19.99,9.99,5.432860895607949,406.295797656,4.937,0.0,1.146,2218.717
430156.33,4582628.23,19.99,9.99,5.434431691934744,406.530144655,5.094,0.0,1.181,2219.898
430155.43,4582629.06,19.99,9.99,5.433035428533149,406.795755105,5.271,0.0,1.224,2221.122
430154.51,4582629.92,20.0,10.0,5.430766500505556,407.029035503,5.428,0.0,1.259,2222.382
430153.56,4582630.8,20.0,10.0,5.429021171253561,407.263210187,5.55,0.0,1.295,2223.677
430152.58,4582631.7,20.0,10.0,5.429021171253561,407.496047585,5.745,0.0,1.331,2225.007
430151.58,4582632.65,20.0,10.0,5.430242901729957,407.729574837,5.888,0.0,1.379,2226.386
430150.54,4582633.59,20.0,10.0,5.431813698056753,407.995872536,6.023,0.0,1.402,2227.788
430149.5,4582634.57,20.0,10.0,5.432860895607949,408.229403264,6.218,0.0,1.429,2229.217
430148.41,4582635.57,20.0,10.0,5.433384494383547,408.462849297,6.334,0.0,1.479,2230.697
430147.3,4582636.61,20.0,10.0,5.433035428533149,408.696155333,6.461,0.0,1.521,2232.218
430146.16,4582637.66,20.0,10.0,5.43251182975755,408.929629649,6.638,0.0,1.55,2233.768
430145.0,4582638.74,20.0,10.0,5.432162763907152,409.19591849,6.738,0.0,1.585,2235.352
430143.82,4582639.83,20.0,10.0,5.43233729683235,409.429372383,6.843,0.0,1.606,2236.959
430142.61,4582640.94,20.0,10.0,5.432686362682749,409.662757455,7.022,0.0,1.642,2238.601
430141.38,4582642.07,20.0,10.0,5.433035428533149,409.896386534,7.133,0.0,1.67,2240.271
430140.13,4582643.23,20.0,10.0,5.433559027308747,410.12946143,7.219,0.0,1.705,2241.976
430138.87,4582644.39,20.0,10.0,5.433908093159146,410.396087616,7.355,0.0,1.713,2243.689
430137.56,4582645.58,20.0,10.0,5.433908093159146,410.62938242,7.475,0.0,1.77,2245.459
430136.25,4582646.78,20.0,10.0,5.434082626084345,410.862771779,7.572,0.0,1.777,2247.235
430134.92,4582648.01,19.99,9.99,5.434257159009545,411.096135758,7.651,0.0,1.812,2249.047
430133.57,4582649.24,19.99,9.99,5.434431691934744,411.329666693,7.757,0.0,1.826,2250.873
430132.2,4582650.5,20.0,10.0,5.434780757785143,411.595838823,7.849,0.0,1.861,2252.735
430130.83,4582651.75,20.0,10.0,5.435129823635542,411.82966467,7.914,0.0,1.855,2254.589
430129.43,4582653.02,20.0,10.0,5.435478889485941,412.062562636,7.985,0.0,1.89,2256.479
430128.03,4582654.3,20.0,10.0,5.435827955336339,412.296246835,8.085,0.0,1.897,2258.376
430126.6,4582655.6,20.0,10.0,5.436177021186738,412.529832611,8.216,0.0,1.933,2260.309
430125.15,4582656.94,20.0,10.0,5.436351554111938,412.795789754,8.287,0.0,1.974,2262.283
430123.7,4582658.26,20.0,10.0,5.436351554111938,413.032145471,8.302,0.0,1.961,2264.244
430122.24,4582659.6,20.0,10.0,5.436526087037137,413.264749928,8.359,0.0,1.982,2266.226
430120.77,4582660.95,20.0,10.0,5.436526087037137,413.495930894,8.43,0.0,1.996,2268.222
430119.29,4582662.3,20.0,10.0,5.436700619962337,413.72809842,8.524,0.0,2.003,2270.225
430117.78,4582663.66,20.0,10.0,5.436875152887536,413.995013348,8.588,0.0,2.032,2272.257
430116.27,4582665.03,20.0,10.0,5.437224218737935,414.230291148,8.629,0.0,2.039,2274.296
430114.76,4582666.41,20.0,10.0,5.437747817513533,414.464738516,8.657,0.0,2.046,2276.342
430113.24,4582667.8,20.0,10.0,5.438096883363931,414.697567839,8.67,0.0,2.06,2278.401
430111.72,4582669.19,20.0,10.0,5.4382714162891315,414.929247196,8.662,0.0,2.06,2280.461
430110.19,4582670.58,20.0,10.0,5.4382714162891315,415.195177516,8.662,0.0,2.067,2282.528
430108.69,4582671.98,20.0,10.0,5.438096883363931,415.43009257,8.642,0.0,2.052,2284.58
430107.19,4582673.36,20.0,10.0,5.437922350438733,415.664020738,8.62,0.0,2.038,2286.618
430105.68,4582674.73,20.0,10.0,5.437398751663134,415.8963735,8.585,0.0,2.039,2288.657
430104.19,4582676.09,20.0,10.0,5.437049685812735,416.128976241,8.536,0.0,2.017,2290.674
430102.71,4582677.46,20.0,10.0,5.436875152887536,416.396388095,8.48,0.0,2.017,2292.691
430101.24,4582678.8,20.0,10.0,5.436875152887536,416.630629513,8.401,0.0,1.989,2294.68
430099.77,4582680.14,20.0,10.0,5.436875152887536,416.863245531,8.323,0.0,1.989,2296.669
430098.33,4582681.47,20.0,10.0,5.436526087037137,417.095693086,8.273,0.0,1.96,2298.63
430096.88,4582682.79,20.0,10.0,5.436177021186738,417.329579015,8.174,0.0,1.961,2300.59
430095.46,4582684.07,20.0,10.0,5.43565342241114,417.597154488,8.014,0.0,1.912,2302.502
430094.07,4582685.34,20.0,10.0,5.435304356560741,417.829915411,7.906,0.0,1.883,2304.385
430092.7,4582686.59,20.0,10.0,5.434955290710343,418.062444948,7.757,0.0,1.855,2306.24
430091.36,4582687.81,20.0,10.0,5.434780757785143,418.296541544,7.595,0.0,1.812,2308.052
430090.04,4582688.99,20.0,10.0,5.434606224859943,418.530933266,7.446,0.0,1.771,2309.822
430088.76,4582690.15,20.0,10.0,5.434431691934744,418.796474744,7.241,0.0,1.727,2311.55
430087.5,4582691.29,20.0,10.0,5.434082626084345,419.028797124,7.051,0.0,1.699,2313.249
430086.28,4582692.39,20.0,10.0,5.433733560233946,419.262661098,6.851,0.0,1.643,2314.892
430085.09,4582693.45,20.0,10.0,5.433384494383547,419.497517049,6.641,0.0,1.594,2316.485
430083.94,4582694.48,20.0,10.0,5.433209961458348,419.763766019,6.441,0.0,1.544,2318.029
430082.83,4582695.47,20.0,10.0,5.432686362682749,419.997049291,6.223,0.0,1.487,2319.516
430081.76,4582696.44,20.0,10.0,5.43251182975755,420.228998896,6.016,0.0,1.444,2320.961
430080.73,4582697.36,20.0,10.0,5.43233729683235,420.46244192,5.79,0.0,1.381,2322.342
430079.74,4582698.25,20.0,10.0,5.432162763907152,420.697192479,5.563,0.0,1.331,2323.673
430078.79,4582699.1,19.99,9.99,5.431988230981952,420.963490058,5.323,0.0,1.275,2324.948
430077.87,4582699.91,19.99,9.99,5.4316391651315525,421.197537663,5.068,0.0,1.226,2326.173
430077.0,4582700.68,19.99,9.99,5.431290099281155,421.429400615,4.813,0.0,1.162,2327.335
430076.18,4582701.41,19.99,9.99,5.430941033430756,421.663528594,4.558,0.0,1.098,2328.433
430075.41,4582702.1,19.99,9.99,5.430766500505556,421.89487833,4.281,0.0,1.034,2329.467
430074.69,4582702.75,19.99,9.99,5.430766500505556,422.161967796,3.998,0.0,0.97,2330.437
430074.02,4582703.34,19.99,9.99,5.430417434655157,422.396803774,3.701,0.0,0.893,2331.33
430073.41,4582703.88,19.99,9.99,5.430068368804759,422.631000543,3.382,0.0,0.815,2332.144
430072.85,4582704.38,19.99,9.99,5.42954477002916,422.863543724,3.042,0.0,0.751,2332.895
430072.35,4582704.81,19.99,9.99,5.429195704178761,423.095875379,2.674,0.0,0.659,2333.555
430071.93,4582705.2,19.98,9.98,5.429195704178761,423.36291394,2.228,0.0,0.573,2334.128
430071.6,4582705.49,19.98,9.98,5.42971930295436,423.598510621,1.739,0.0,0.439,2334.567
430071.34,4582705.71,19.98,9.98,5.430242901729957,423.831337461,1.412,0.0,0.341,2334.908
430071.1,4582705.92,19.98,9.98,5.4283230395527635,424.062735221,1.545,0.0,0.319,2335.227
430070.82,4582706.19,19.97,9.97,5.427624907851966,424.295035634,1.995,0.0,0.389,2335.616
430070.46,4582706.55,19.97,9.97,5.42937023710396,424.562144307,2.433,0.0,0.509,2336.125
430070.04,4582706.97,19.97,9.97,5.430766500505556,424.797635895,2.709,0.0,0.594,2336.719
430069.59,4582707.43,19.97,9.97,5.436526087037137,425.032663177,2.829,0.0,0.644,2337.362
430069.14,4582707.92,19.97,9.97,5.4897586292229645,425.265180423,2.906,0.0,0.665,2338.027
430068.68,4582708.42,19.98,9.98,5.554684877397152,425.496333263,2.991,0.0,0.679,2338.707
430068.21,4582708.95,19.98,9.98,5.584180941755857,425.761327894,3.097,0.0,0.708,2339.415
430067.71,4582709.49,19.98,9.98,5.570043774814703,425.995332535,3.232,0.0,0.736,2340.151
430067.18,4582710.04,19.98,9.98,5.533566393448022,426.230715838,3.381,0.0,0.764,2340.915
430066.62,4582710.62,19.98,9.98,5.501277802286126,426.465125973,3.515,0.0,0.806,2341.721
430066.05,4582711.23,19.98,9.98,5.488187832896169,426.698014007,3.677,0.0,0.835,2342.556
430065.46,4582711.86,19.98,9.98,5.49377288650255,426.962318641,3.854,0.0,0.863,2343.419
430064.84,4582712.55,19.98,9.98,5.507386454668107,427.195415606,4.024,0.0,0.928,2344.347
430064.19,4582713.26,19.99,9.99,5.517858430180073,427.430066752,4.2,0.0,0.963,2345.309
430063.51,4582714.0,19.99,9.99,5.5196037594320675,427.664994498,4.384,0.0,1.005,2346.314
430062.8,4582714.78,19.99,9.99,5.513844172900486,427.898224608,4.582,0.0,1.055,2347.369
430062.06,4582715.58,19.99,9.99,5.505815658341311,428.162821904,4.759,0.0,1.09,2348.459
430061.28,4582716.42,19.99,9.99,5.50005607180973,428.395913647,4.943,0.0,1.146,2349.605
430060.48,4582717.29,19.99,9.99,5.4984852754829365,428.630556914,5.098,0.0,1.182,2350.787
430059.66,4582718.18,19.99,9.99,5.50005607180973,428.864478298,5.247,0.0,1.21,2351.997
430058.81,4582719.1,19.99,9.99,5.502499532762522,429.096881241,5.424,0.0,1.253,2353.25
430057.93,4582720.05,19.99,9.99,5.503721263238919,429.362814387,5.558,0.0,1.295,2354.545
430057.03,4582721.03,19.99,9.99,5.503197664463321,429.597404563,5.707,0.0,1.331,2355.875
430056.11,4582722.04,19.99,9.99,5.501626868136526,429.830705365,5.876,0.0,1.366,2357.242
430055.15,4582723.06,19.99,9.99,5.4997070059593325,430.063363745,5.975,0.0,1.401,2358.642
430054.17,4582724.1,19.99,9.99,5.498659808408135,430.297441245,6.152,0.0,1.429,2360.071
430053.16,4582725.17,20.0,10.0,5.4984852754829365,430.563764976,6.322,0.0,1.471,2361.543
430052.13,4582726.27,20.0,10.0,5.4988343413333345,430.79651478,6.413,0.0,1.507,2363.05
430051.08,4582727.38,20.0,10.0,5.499532473034132,431.030670683,6.576,0.0,1.528,2364.578
430050.01,4582728.53,20.0,10.0,5.4997070059593325,431.264142691,6.725,0.0,1.571,2366.148
430048.91,4582729.7,20.0,10.0,5.499357940108934,431.496676802,6.824,0.0,1.606,2367.754
430047.79,4582730.89,20.0,10.0,5.4988343413333345,431.76374671,6.951,0.0,1.634,2369.388
430046.65,4582732.1,20.0,10.0,5.498310742557736,431.997353907,7.085,0.0,1.662,2371.051
430045.49,4582733.32,20.0,10.0,5.498136209632536,432.229930356,7.17,0.0,1.683,2372.734
430044.32,4582734.55,20.0,10.0,5.498310742557736,432.463840831,7.255,0.0,1.698,2374.432
430043.13,4582735.81,20.0,10.0,5.4984852754829365,432.699105411,7.389,0.0,1.733,2376.165
430041.92,4582737.09,20.0,10.0,5.4984852754829365,432.962981497,7.538,0.0,1.761,2377.926
430040.7,4582738.38,20.0,10.0,5.498310742557736,433.19702664,7.594,0.0,1.776,2379.702
430039.46,4582739.68,20.0,10.0,5.498310742557736,433.430754018,7.686,0.0,1.797,2381.499
430038.2,4582741.02,20.0,10.0,5.498136209632536,433.663543208,7.764,0.0,1.839,2383.338
430036.92,4582742.35,20.0,10.0,5.497961676707337,433.897526683,7.884,0.0,1.846,2385.184
430035.62,4582743.7,20.0,10.0,5.498136209632536,434.163395007,7.969,0.0,1.874,2387.058
430034.31,4582745.06,20.0,10.0,5.4984852754829365,434.39698669,8.026,0.0,1.888,2388.946
430033.0,4582746.43,20.0,10.0,5.4988343413333345,434.630332455,8.096,0.0,1.896,2390.842
430031.67,4582747.82,20.0,10.0,5.499183407183733,434.863838928,8.174,0.0,1.924,2392.766
430030.33,4582749.22,20.0,10.0,5.499357940108934,435.097153678,8.259,0.0,1.938,2394.703
430028.97,4582750.64,20.0,10.0,5.499357940108934,435.363688444,8.337,0.0,1.966,2396.67
430027.59,4582752.08,20.0,10.0,5.499357940108934,435.597327635,8.401,0.0,1.994,2398.664
430026.21,4582753.51,20.0,10.0,5.499357940108934,435.82988959,8.471,0.0,1.987,2400.651
430024.81,4582754.97,20.0,10.0,5.499532473034132,436.06387219,8.542,0.0,2.023,2402.674
430023.41,4582756.43,20.0,10.0,5.499881538884531,436.33038996,8.584,0.0,2.023,2404.697
430021.99,4582757.89,20.0,10.0,5.50005607180973,436.563013503,8.613,0.0,2.037,2406.734
430020.58,4582759.36,20.0,10.0,5.50023060473493,436.797039643,8.606,0.0,2.037,2408.771
430019.18,4582760.83,20.0,10.0,5.50023060473493,437.030785811,8.606,0.0,2.03,2410.801
430017.78,4582762.29,20.0,10.0,5.50023060473493,437.263557945,8.613,0.0,2.023,2412.823
430016.37,4582763.76,20.0,10.0,5.50005607180973,437.530469349,8.57,0.0,2.037,2414.86
430014.97,4582765.21,20.0,10.0,5.499881538884531,437.763405434,8.521,0.0,2.016,2416.876
430013.59,4582766.67,20.0,10.0,5.4997070059593325,437.996974467,8.493,0.0,2.009,2418.885
430012.21,4582768.11,20.0,10.0,5.499357940108934,438.230738799,8.457,0.0,1.994,2420.879
430010.83,4582769.55,20.0,10.0,5.4988343413333345,438.463509294,8.415,0.0,1.994,2422.874
430009.46,4582770.96,20.0,10.0,5.498659808408135,438.730517331,8.372,0.0,1.966,2424.84
430008.08,4582772.38,20.0,10.0,5.4984852754829365,438.963388585,8.337,0.0,1.98,2426.82
430006.71,4582773.79,20.0,10.0,5.4984852754829365,439.196964496,8.231,0.0,1.966,2428.786
430005.36,4582775.14,20.01,10.01,5.4988343413333345,439.430694807,8.104,0.0,1.909,2430.695
430004.03,4582776.51,20.01,10.01,5.499183407183733,439.663520823,7.976,0.0,1.909,2432.604
430002.72,4582777.85,20.01,10.01,5.499532473034132,439.930448183,7.877,0.0,1.874,2434.478
430001.43,4582779.17,20.01,10.01,5.499532473034132,440.163482794,7.743,0.0,1.846,2436.324
430000.17,4582780.47,20.01,10.01,5.499357940108934,440.397301928,7.531,0.0,1.81,2438.134
429998.94,4582781.72,20.01,10.01,5.499183407183733,440.630196382,7.396,0.0,1.754,2439.888
429997.73,4582782.95,20.0,10.0,5.498659808408135,440.863651487,7.177,0.0,1.725,2441.614
429996.58,4582784.15,20.0,10.0,5.4984852754829365,441.130667133,6.986,0.0,1.662,2443.276
429995.44,4582785.31,20.0,10.0,5.498136209632536,441.363156119,6.781,0.0,1.626,2444.902
429994.35,4582786.43,20.0,10.0,5.497787143782138,441.596740499,6.597,0.0,1.563,2446.465
429993.28,4582787.53,20.0,10.0,5.49726354500654,441.830867382,6.385,0.0,1.535,2447.999
429992.25,4582788.58,20.0,10.0,5.496914479156141,442.063639188,6.18,0.0,1.471,2449.47
429991.24,4582789.6,20.0,10.0,5.496565413305742,442.329857576,5.954,0.0,1.435,2450.906
429990.29,4582790.58,20.0,10.0,5.496216347455344,442.56398395,5.735,0.0,1.365,2452.271
429989.36,4582791.52,20.0,10.0,5.496041814530144,442.796818176,5.508,0.0,1.322,2453.593
429988.48,4582792.42,20.0,10.0,5.495692748679745,443.030574674,5.268,0.0,1.259,2454.852
429987.64,4582793.27,19.99,9.99,5.495343682829346,443.264058614,5.028,0.0,1.195,2456.047
429986.84,4582794.07,19.99,9.99,5.494994616978948,443.529880393,4.78,0.0,1.131,2457.178
429986.08,4582794.85,19.99,9.99,5.4946455511285475,443.763883749,4.511,0.0,1.089,2458.267
429985.36,4582795.58,19.99,9.99,5.4942964852781495,443.996759388,4.236,0.0,1.025,2459.292
429984.69,4582796.25,19.99,9.99,5.49377288650255,444.230242509,3.946,0.0,0.948,2460.24
429984.07,4582796.88,19.99,9.99,5.493249287726953,444.463753271,3.649,0.0,0.884,2461.124
429983.51,4582797.45,19.99,9.99,5.492725688951354,444.734167156,3.338,0.0,0.799,2461.923
429982.99,4582797.96,19.99,9.99,5.4922020901757564,444.966033872,2.998,0.0,0.728,2462.651
429982.53,4582798.42,19.98,9.98,5.492376623100956,445.196592859,2.624,0.0,0.651,2463.302
429982.15,4582798.8,19.98,9.98,5.492900221876554,445.427990907,2.171,0.0,0.537,2463.839
429981.85,4582799.1,19.98,9.98,5.493598353577352,445.661028218,1.683,0.0,0.424,2464.263
429981.61,4582799.33,19.98,9.98,5.493947419427751,445.928487814,1.302,0.0,0.332,2464.596
429981.44,4582799.5,19.98,9.98,5.493598353577352,446.164789846,1.04,0.0,0.24,2464.836
429981.3,4582799.63,19.97,9.97,5.493074754801754,446.400216518,0.913,0.0,0.191,2465.027
429981.17,4582799.77,19.97,9.97,5.492900221876554,446.633996257,1.005,0.0,0.191,2465.218
429981.0,4582799.94,19.97,9.97,5.492376623100956,446.865663926,1.288,0.0,0.24,2465.459
429980.78,4582800.15,19.97,9.97,5.4922020901757564,447.129102585,1.606,0.0,0.304,2465.763
429980.5,4582800.43,19.97,9.97,5.492376623100956,447.361356817,1.875,0.0,0.396,2466.159
429980.2,4582800.74,19.97,9.97,5.493074754801754,447.595362098,2.13,0.0,0.431,2466.59
429979.85,4582801.11,19.97,9.97,5.493423820652152,447.830884258,2.342,0.0,0.509,2467.1
